# alfa=-1 beta=3 gamma=1.5 omega=0.6 k=0
0 -0.9999 1.0001 0 0
0.01 -0.9999 1.0001 0.00499084 -0.020003
0.02 -0.99985 0.999899 0.00997773 -0.039988
0.03 -0.99975 0.999497 0.0149572 -0.0599389
0.04 -0.999599 0.998895 0.0199258 -0.0798397
0.05 -0.999399 0.998092 0.02488 -0.0996746
0.06 -0.999149 0.997091 0.0298165 -0.119428
0.07 -0.998849 0.99589 0.0347319 -0.139083
0.08 -0.9985 0.994492 0.0396226 -0.158627
0.09 -0.998102 0.992898 0.0444855 -0.178042
0.1 -0.997655 0.991109 0.0493171 -0.197314
0.11 -0.997159 0.989126 0.0541143 -0.216429
0.12 -0.996615 0.986951 0.0588736 -0.235372
0.13 -0.996024 0.984585 0.063592 -0.254129
0.14 -0.995385 0.982031 0.0682663 -0.272687
0.15 -0.994699 0.979291 0.0728934 -0.291033
0.16 -0.993966 0.976366 0.0774701 -0.309153
0.17 -0.993187 0.973259 0.0819936 -0.327036
0.18 -0.992363 0.969972 0.0864609 -0.34467
0.19 -0.991494 0.966508 0.0908691 -0.362042
0.2 -0.990581 0.962869 0.0952155 -0.379143
0.21 -0.989624 0.959059 0.0994972 -0.395962
0.22 -0.988624 0.955079 0.103712 -0.41249
0.23 -0.987582 0.950934 0.107856 -0.428716
0.24 -0.986498 0.946625 0.111929 -0.444632
0.25 -0.985373 0.942156 0.115926 -0.460231
0.26 -0.984208 0.937531 0.119846 -0.475504
0.27 -0.983003 0.932752 0.123687 -0.490445
0.28 -0.98176 0.927823 0.127447 -0.505046
0.29 -0.98048 0.922747 0.131122 -0.519303
0.3 -0.979162 0.917528 0.134712 -0.533211
0.31 -0.977808 0.912169 0.138215 -0.546763
0.32 -0.976419 0.906674 0.141628 -0.559957
0.33 -0.974995 0.901047 0.14495 -0.572788
0.34 -0.973539 0.89529 0.148179 -0.585254
0.35 -0.972049 0.889408 0.151314 -0.597352
0.36 -0.970529 0.883405 0.154354 -0.609081
0.37 -0.968977 0.877283 0.157296 -0.620439
0.38 -0.967397 0.871048 0.16014 -0.631425
0.39 -0.965787 0.864702 0.162884 -0.642039
0.4 -0.96415 0.858249 0.165528 -0.652282
0.41 -0.962486 0.851694 0.168071 -0.662153
0.42 -0.960797 0.845039 0.170511 -0.671654
0.43 -0.959084 0.838289 0.172848 -0.680787
0.44 -0.957347 0.831447 0.175081 -0.689553
0.45 -0.955587 0.824517 0.17721 -0.697956
0.46 -0.953806 0.817502 0.179235 -0.705998
0.47 -0.952005 0.810407 0.181154 -0.713682
0.48 -0.950184 0.803234 0.182967 -0.721011
0.49 -0.948345 0.795988 0.184675 -0.727991
0.5 -0.946489 0.788671 0.186277 -0.734625
0.51 -0.944617 0.781288 0.187773 -0.740918
0.52 -0.94273 0.773842 0.189163 -0.746875
0.53 -0.940829 0.766336 0.190448 -0.7525
0.54 -0.938915 0.758773 0.191628 -0.7578
0.55 -0.936989 0.751157 0.192702 -0.76278
0.56 -0.935052 0.743491 0.193672 -0.767446
0.57 -0.933106 0.735778 0.194537 -0.771805
0.58 -0.931151 0.728021 0.195299 -0.775861
0.59 -0.929188 0.720223 0.195958 -0.779622
0.6 -0.927218 0.712388 0.196515 -0.783095
0.61 -0.925243 0.704518 0.196971 -0.786286
0.62 -0.923264 0.696616 0.197326 -0.789202
0.63 -0.921281 0.688684 0.197581 -0.79185
0.64 -0.919295 0.680726 0.197738 -0.794237
0.65 -0.917308 0.672744 0.197797 -0.796371
0.66 -0.91532 0.66474 0.197759 -0.798257
0.67 -0.913332 0.656717 0.197627 -0.799904
0.68 -0.911346 0.648678 0.1974 -0.801319
0.69 -0.909362 0.640625 0.197081 -0.802509
0.7 -0.907381 0.632559 0.19667 -0.803482
0.71 -0.905405 0.624484 0.196169 -0.804244
0.72 -0.903433 0.616401 0.19558 -0.804803
0.73 -0.901468 0.608313 0.194905 -0.805166
0.74 -0.899509 0.600221 0.194143 -0.80534
0.75 -0.897558 0.592127 0.193298 -0.805333
0.76 -0.895615 0.584033 0.192371 -0.805151
0.77 -0.893682 0.575942 0.191364 -0.804802
0.78 -0.891758 0.567853 0.190277 -0.804293
0.79 -0.889846 0.55977 0.189114 -0.80363
0.8 -0.887945 0.551693 0.187876 -0.802821
0.81 -0.886057 0.543625 0.186564 -0.801871
0.82 -0.884182 0.535566 0.185181 -0.800788
0.83 -0.882321 0.527518 0.183729 -0.799578
0.84 -0.880475 0.519482 0.182209 -0.798248
0.85 -0.878643 0.511459 0.180623 -0.796804
0.86 -0.876828 0.503451 0.178973 -0.795252
0.87 -0.875029 0.495459 0.177262 -0.793598
0.88 -0.873248 0.487483 0.175491 -0.791849
0.89 -0.871484 0.479525 0.173663 -0.79001
0.9 -0.869739 0.471585 0.171778 -0.788086
0.91 -0.868012 0.463665 0.16984 -0.786084
0.92 -0.866306 0.455765 0.167851 -0.78401
0.93 -0.864619 0.447885 0.165812 -0.781867
0.94 -0.862952 0.440027 0.163726 -0.779663
0.95 -0.861307 0.432191 0.161595 -0.777401
0.96 -0.859683 0.424378 0.15942 -0.775087
0.97 -0.85808 0.416589 0.157204 -0.772726
0.98 -0.8565 0.408823 0.15495 -0.770322
0.99 -0.854943 0.401081 0.152658 -0.76788
1 -0.853409 0.393363 0.150332 -0.765405
1.01 -0.851898 0.385671 0.147973 -0.762901
1.02 -0.850411 0.378004 0.145584 -0.760372
1.03 -0.848948 0.370362 0.143166 -0.757823
1.04 -0.847509 0.362746 0.140723 -0.755257
1.05 -0.846095 0.355155 0.138255 -0.752678
1.06 -0.844705 0.347591 0.135765 -0.75009
1.07 -0.843341 0.340052 0.133255 -0.747497
1.08 -0.842002 0.33254 0.130727 -0.744902
1.09 -0.840688 0.325053 0.128183 -0.742309
1.1 -0.839399 0.317593 0.125626 -0.73972
1.11 -0.838137 0.310159 0.123057 -0.73714
1.12 -0.8369 0.30275 0.120478 -0.734571
1.13 -0.835689 0.295368 0.117892 -0.732017
1.14 -0.834504 0.288011 0.1153 -0.729479
1.15 -0.833346 0.280679 0.112705 -0.726961
1.16 -0.832213 0.273373 0.110108 -0.724466
1.17 -0.831106 0.266092 0.107512 -0.721996
1.18 -0.830026 0.258836 0.104917 -0.719553
1.19 -0.828971 0.251604 0.102328 -0.717141
1.2 -0.827943 0.244397 0.099744 -0.71476
1.21 -0.826941 0.237214 0.0971685 -0.712415
1.22 -0.825964 0.230054 0.0946031 -0.710105
1.23 -0.825013 0.222917 0.0920496 -0.707835
1.24 -0.824088 0.215803 0.0895098 -0.705604
1.25 -0.823189 0.208712 0.0869856 -0.703416
1.26 -0.822314 0.201642 0.0844787 -0.701273
1.27 -0.821465 0.194594 0.0819911 -0.699175
1.28 -0.820641 0.187568 0.0795243 -0.697124
1.29 -0.819842 0.180561 0.0770803 -0.695122
1.3 -0.819067 0.173575 0.0746606 -0.693171
1.31 -0.818317 0.166609 0.072267 -0.691272
1.32 -0.817591 0.159661 0.0699012 -0.689426
1.33 -0.816888 0.152733 0.0675648 -0.687634
1.34 -0.816209 0.145822 0.0652593 -0.685897
1.35 -0.815553 0.138928 0.0629865 -0.684218
1.36 -0.81492 0.132052 0.0607479 -0.682596
1.37 -0.81431 0.125192 0.058545 -0.681032
1.38 -0.813721 0.118347 0.0563793 -0.679529
1.39 -0.813155 0.111518 0.0542524 -0.678086
1.4 -0.812609 0.104703 0.0521656 -0.676704
1.41 -0.812085 0.0979019 0.0501204 -0.675384
1.42 -0.811581 0.0911142 0.0481183 -0.674127
1.43 -0.811098 0.0843391 0.0461606 -0.672933
1.44 -0.810634 0.077576 0.0442486 -0.671803
1.45 -0.810189 0.0708243 0.0423836 -0.670738
1.46 -0.809763 0.0640832 0.040567 -0.669737
1.47 -0.809356 0.0573523 0.0388 -0.668802
1.48 -0.808966 0.0506307 0.0370839 -0.667933
1.49 -0.808593 0.0439179 0.0354197 -0.667129
1.5 -0.808237 0.0372131 0.0338087 -0.666392
1.51 -0.807897 0.0305157 0.0322521 -0.665722
1.52 -0.807573 0.0238251 0.0307509 -0.665118
1.53 -0.807264 0.0171406 0.0293061 -0.664581
1.54 -0.806969 0.0104614 0.0279189 -0.664111
1.55 -0.806689 0.00378702 0.0265902 -0.663707
1.56 -0.806422 -0.00288335 0.025321 -0.663371
1.57 -0.806167 -0.00955034 0.0241122 -0.663101
1.58 -0.805925 -0.0162146 0.0229647 -0.662899
1.59 -0.805694 -0.0228769 0.0218795 -0.662762
1.6 -0.805474 -0.0295377 0.0208572 -0.662693
1.61 -0.805265 -0.0361979 0.0198988 -0.662689
1.62 -0.805065 -0.042858 0.019005 -0.662751
1.63 -0.804874 -0.0495188 0.0181765 -0.662878
1.64 -0.804691 -0.0561808 0.0174141 -0.663071
1.65 -0.804516 -0.0628448 0.0167183 -0.663328
1.66 -0.804348 -0.0695114 0.0160898 -0.663649
1.67 -0.804186 -0.0761811 0.0155292 -0.664034
1.68 -0.80403 -0.0828548 0.015037 -0.664482
1.69 -0.803879 -0.0895329 0.0146138 -0.664992
1.7 -0.803732 -0.0962162 0.0142599 -0.665564
1.71 -0.803589 -0.102905 0.013976 -0.666197
1.72 -0.803448 -0.109601 0.0137623 -0.66689
1.73 -0.80331 -0.116303 0.0136193 -0.667643
1.74 -0.803173 -0.123013 0.0135472 -0.668454
1.75 -0.803037 -0.129731 0.0135464 -0.669323
1.76 -0.802901 -0.136458 0.013617 -0.670248
1.77 -0.802764 -0.143194 0.0137595 -0.671229
1.78 -0.802626 -0.14994 0.0139738 -0.672264
1.79 -0.802485 -0.156696 0.0142601 -0.673352
1.8 -0.802342 -0.163464 0.0146187 -0.674493
1.81 -0.802195 -0.170242 0.0150494 -0.675685
1.82 -0.802044 -0.177033 0.0155524 -0.676926
1.83 -0.801887 -0.183836 0.0161277 -0.678215
1.84 -0.801725 -0.190652 0.0167751 -0.679551
1.85 -0.801557 -0.197482 0.0174947 -0.680932
1.86 -0.801381 -0.204326 0.0182862 -0.682357
1.87 -0.801197 -0.211183 0.0191496 -0.683824
1.88 -0.801005 -0.218056 0.0200847 -0.685331
1.89 -0.800803 -0.224944 0.0210912 -0.686877
1.9 -0.800591 -0.231847 0.0221688 -0.688459
1.91 -0.800368 -0.238766 0.0233173 -0.690077
1.92 -0.800134 -0.245701 0.0245363 -0.691727
1.93 -0.799887 -0.252653 0.0258254 -0.693408
1.94 -0.799628 -0.259622 0.0271843 -0.695118
1.95 -0.799354 -0.266608 0.0286125 -0.696855
1.96 -0.799067 -0.273612 0.0301095 -0.698616
1.97 -0.798764 -0.280633 0.0316748 -0.700399
1.98 -0.798446 -0.287672 0.0333079 -0.702201
1.99 -0.798111 -0.294729 0.0350081 -0.704021
2 -0.797759 -0.301805 0.0367749 -0.705855
2.01 -0.79739 -0.308899 0.0386077 -0.707701
2.02 -0.797002 -0.316011 0.0405057 -0.709556
2.03 -0.796595 -0.323142 0.0424682 -0.711417
2.04 -0.796168 -0.330292 0.0444946 -0.713282
2.05 -0.795721 -0.337461 0.046584 -0.715147
2.06 -0.795252 -0.344648 0.0487357 -0.717009
2.07 -0.794763 -0.351854 0.0509489 -0.718865
2.08 -0.794251 -0.359079 0.0532226 -0.720712
2.09 -0.793716 -0.366322 0.055556 -0.722547
2.1 -0.793157 -0.373584 0.0579483 -0.724366
2.11 -0.792575 -0.380864 0.0603984 -0.726165
2.12 -0.791968 -0.388162 0.0629055 -0.727941
2.13 -0.791336 -0.395478 0.0654685 -0.72969
2.14 -0.790678 -0.402812 0.0680865 -0.731408
2.15 -0.789993 -0.410162 0.0707585 -0.733092
2.16 -0.789282 -0.41753 0.0734834 -0.734737
2.17 -0.788544 -0.424914 0.0762601 -0.736339
2.18 -0.787777 -0.432315 0.0790877 -0.737894
2.19 -0.786983 -0.43973 0.0819649 -0.739398
2.2 -0.786159 -0.447162 0.0848907 -0.740846
2.21 -0.785306 -0.454607 0.0878639 -0.742234
2.22 -0.784423 -0.462067 0.0908835 -0.743558
2.23 -0.783509 -0.46954 0.0939482 -0.744811
2.24 -0.782565 -0.477025 0.097057 -0.745991
2.25 -0.78159 -0.484522 0.100209 -0.747092
2.26 -0.780582 -0.492031 0.103402 -0.748108
2.27 -0.779543 -0.499549 0.106635 -0.749035
2.28 -0.778472 -0.507077 0.109908 -0.749869
2.29 -0.777367 -0.514614 0.113219 -0.750602
2.3 -0.776229 -0.522157 0.116567 -0.751232
2.31 -0.775058 -0.529707 0.119951 -0.751751
2.32 -0.773852 -0.537263 0.123368 -0.752155
2.33 -0.772612 -0.544822 0.126819 -0.752437
2.34 -0.771338 -0.552384 0.130302 -0.752594
2.35 -0.770028 -0.559948 0.133816 -0.752618
2.36 -0.768683 -0.567512 0.137359 -0.752504
2.37 -0.767303 -0.575074 0.140931 -0.752247
2.38 -0.765886 -0.582635 0.144529 -0.751841
2.39 -0.764434 -0.590191 0.148154 -0.75128
2.4 -0.762945 -0.597741 0.151803 -0.750557
2.41 -0.761419 -0.605284 0.155476 -0.749668
2.42 -0.759857 -0.612819 0.159171 -0.748606
2.43 -0.758257 -0.620342 0.162887 -0.747366
2.44 -0.75662 -0.627854 0.166623 -0.745941
2.45 -0.754945 -0.63535 0.170378 -0.744325
2.46 -0.753233 -0.642831 0.174151 -0.742513
2.47 -0.751483 -0.650293 0.177941 -0.740499
2.48 -0.749694 -0.657735 0.181746 -0.738277
2.49 -0.747868 -0.665155 0.185565 -0.735842
2.5 -0.746003 -0.672551 0.189398 -0.733186
2.51 -0.744099 -0.679919 0.193243 -0.730305
2.52 -0.742157 -0.687259 0.197099 -0.727194
2.53 -0.740176 -0.694567 0.200966 -0.723845
2.54 -0.738157 -0.701842 0.204842 -0.720255
2.55 -0.736098 -0.709081 0.208727 -0.716418
2.56 -0.734 -0.716281 0.212618 -0.712328
2.57 -0.731863 -0.72344 0.216517 -0.707981
2.58 -0.729687 -0.730555 0.220421 -0.703371
2.59 -0.727472 -0.737624 0.224329 -0.698493
2.6 -0.725217 -0.744644 0.228242 -0.693344
2.61 -0.722924 -0.751612 0.232158 -0.687918
2.62 -0.72059 -0.758526 0.236076 -0.682212
2.63 -0.718218 -0.765383 0.239996 -0.67622
2.64 -0.715806 -0.772179 0.243916 -0.669941
2.65 -0.713354 -0.778912 0.247837 -0.663369
2.66 -0.710864 -0.785579 0.251758 -0.656501
2.67 -0.708333 -0.792177 0.255677 -0.649335
2.68 -0.705764 -0.798702 0.259595 -0.641868
2.69 -0.703155 -0.805153 0.26351 -0.634097
2.7 -0.700506 -0.811526 0.267423 -0.62602
2.71 -0.697819 -0.817818 0.271333 -0.617635
2.72 -0.695092 -0.824025 0.275239 -0.608941
2.73 -0.692326 -0.830145 0.27914 -0.599936
2.74 -0.68952 -0.836175 0.283038 -0.59062
2.75 -0.686676 -0.84211 0.28693 -0.580992
2.76 -0.683792 -0.847949 0.290818 -0.571051
2.77 -0.680869 -0.853689 0.2947 -0.5608
2.78 -0.677907 -0.859325 0.298576 -0.550237
2.79 -0.674907 -0.864855 0.302447 -0.539364
2.8 -0.671867 -0.870275 0.306312 -0.528183
2.81 -0.668789 -0.875584 0.31017 -0.516696
2.82 -0.665671 -0.880777 0.314022 -0.504905
2.83 -0.662515 -0.885851 0.317868 -0.492813
2.84 -0.659321 -0.890804 0.321707 -0.480423
2.85 -0.656087 -0.895632 0.325541 -0.467739
2.86 -0.652816 -0.900333 0.329368 -0.454765
2.87 -0.649506 -0.904903 0.333188 -0.441506
2.88 -0.646157 -0.909341 0.337003 -0.427966
2.89 -0.64277 -0.913642 0.340812 -0.414152
2.9 -0.639345 -0.917804 0.344615 -0.40007
2.91 -0.635881 -0.921825 0.348413 -0.385725
2.92 -0.63238 -0.925701 0.352205 -0.371125
2.93 -0.62884 -0.929431 0.355993 -0.356277
2.94 -0.625262 -0.933012 0.359776 -0.341189
2.95 -0.621646 -0.936441 0.363555 -0.325869
2.96 -0.617993 -0.939716 0.36733 -0.310326
2.97 -0.614301 -0.942835 0.371102 -0.294569
2.98 -0.610571 -0.945795 0.374871 -0.278606
2.99 -0.606804 -0.948595 0.378638 -0.262449
3 -0.602998 -0.951233 0.382403 -0.246107
3.01 -0.599155 -0.953706 0.386167 -0.22959
3.02 -0.595274 -0.956014 0.389931 -0.21291
3.03 -0.591355 -0.958154 0.393695 -0.196078
3.04 -0.587399 -0.960124 0.397459 -0.179105
3.05 -0.583404 -0.961924 0.401225 -0.162003
3.06 -0.579372 -0.963552 0.404993 -0.144784
3.07 -0.575301 -0.965008 0.408765 -0.12746
3.08 -0.571193 -0.966289 0.41254 -0.110044
3.09 -0.567047 -0.967395 0.41632 -0.0925481
3.1 -0.562863 -0.968325 0.420106 -0.0749856
3.11 -0.558641 -0.969078 0.423898 -0.0573692
3.12 -0.554381 -0.969655 0.427698 -0.039712
3.13 -0.550082 -0.970054 0.431506 -0.0220273
3.14 -0.545746 -0.970275 0.435324 -0.00432822
3.15 -0.54137 -0.970319 0.439152 0.0133719
3.16 -0.536957 -0.970184 0.442992 0.0310598
3.17 -0.532505 -0.969872 0.446845 0.0487222
3.18 -0.528014 -0.969383 0.450711 0.0663458
3.19 -0.523484 -0.968716 0.454592 0.0839175
3.2 -0.518915 -0.967872 0.458489 0.101424
3.21 -0.514308 -0.966853 0.462404 0.118853
3.22 -0.50966 -0.965659 0.466337 0.136191
3.23 -0.504974 -0.96429 0.47029 0.153426
3.24 -0.500247 -0.962748 0.474264 0.170545
3.25 -0.495481 -0.961034 0.47826 0.187536
3.26 -0.490674 -0.959149 0.482281 0.204387
3.27 -0.485827 -0.957095 0.486326 0.221086
3.28 -0.480939 -0.954873 0.490397 0.237622
3.29 -0.476011 -0.952485 0.494497 0.253984
3.3 -0.471041 -0.949932 0.498626 0.27016
3.31 -0.46603 -0.947217 0.502785 0.286141
3.32 -0.460977 -0.944341 0.506977 0.301917
3.33 -0.455881 -0.941307 0.511202 0.317477
3.34 -0.450744 -0.938116 0.515463 0.332812
3.35 -0.445563 -0.934772 0.519761 0.347913
3.36 -0.44034 -0.931275 0.524096 0.362772
3.37 -0.435072 -0.927629 0.528472 0.377381
3.38 -0.429761 -0.923836 0.53289 0.391732
3.39 -0.424405 -0.919899 0.537351 0.405817
3.4 -0.419005 -0.915821 0.541856 0.419631
3.41 -0.413559 -0.911603 0.546408 0.433166
3.42 -0.408068 -0.90725 0.551009 0.446416
3.43 -0.40253 -0.902764 0.555659 0.459377
3.44 -0.396946 -0.898147 0.560361 0.472043
3.45 -0.391314 -0.893403 0.565116 0.48441
3.46 -0.385634 -0.888534 0.569927 0.496474
3.47 -0.379907 -0.883545 0.574795 0.508231
3.48 -0.37413 -0.878437 0.579722 0.519678
3.49 -0.368303 -0.873214 0.584709 0.530812
3.5 -0.362427 -0.867879 0.589759 0.541631
3.51 -0.3565 -0.862436 0.594873 0.552133
3.52 -0.350521 -0.856887 0.600053 0.562318
3.53 -0.344491 -0.851235 0.605302 0.572183
3.54 -0.338407 -0.845485 0.610621 0.581729
3.55 -0.33227 -0.839638 0.616012 0.590955
3.56 -0.326079 -0.833699 0.621477 0.599861
3.57 -0.319833 -0.82767 0.627017 0.608449
3.58 -0.313532 -0.821555 0.632636 0.616719
3.59 -0.307174 -0.815357 0.638334 0.624672
3.6 -0.300758 -0.809079 0.644115 0.632311
3.61 -0.294285 -0.802724 0.649979 0.639637
3.62 -0.287752 -0.796296 0.655929 0.646652
3.63 -0.28116 -0.789797 0.661967 0.65336
3.64 -0.274507 -0.783231 0.668095 0.659764
3.65 -0.267793 -0.7766 0.674316 0.665865
3.66 -0.261016 -0.769908 0.68063 0.671669
3.67 -0.254175 -0.763157 0.68704 0.677179
3.68 -0.247271 -0.756352 0.693549 0.682399
3.69 -0.2403 -0.749493 0.700158 0.687332
3.7 -0.233264 -0.742586 0.706869 0.691984
3.71 -0.226159 -0.735631 0.713684 0.696359
3.72 -0.218987 -0.728632 0.720606 0.700462
3.73 -0.211745 -0.721593 0.727637 0.704298
3.74 -0.204432 -0.714514 0.734778 0.707872
3.75 -0.197047 -0.7074 0.742031 0.711189
3.76 -0.18959 -0.700253 0.7494 0.714254
3.77 -0.182058 -0.693074 0.756885 0.717074
3.78 -0.174451 -0.685867 0.764488 0.719653
3.79 -0.166768 -0.678635 0.772213 0.721998
3.8 -0.159007 -0.671379 0.78006 0.724113
3.81 -0.151167 -0.664101 0.788031 0.726006
3.82 -0.143248 -0.656805 0.796129 0.727681
3.83 -0.135246 -0.649491 0.804356 0.729145
3.84 -0.127162 -0.642163 0.812713 0.730403
3.85 -0.118994 -0.634823 0.821201 0.731462
3.86 -0.110741 -0.627471 0.829824 0.732327
3.87 -0.102401 -0.620111 0.838582 0.733005
3.88 -0.0939735 -0.612745 0.847478 0.733502
3.89 -0.0854562 -0.605373 0.856513 0.733823
3.9 -0.0768481 -0.597998 0.865688 0.733974
3.91 -0.0681478 -0.590621 0.875005 0.733962
3.92 -0.0593538 -0.583245 0.884465 0.733791
3.93 -0.0504648 -0.57587 0.89407 0.733469
3.94 -0.0414793 -0.568498 0.903821 0.733001
3.95 -0.0323957 -0.561132 0.913719 0.732393
3.96 -0.0232127 -0.553771 0.923766 0.731649
3.97 -0.0139287 -0.546418 0.933962 0.730777
3.98 -0.00454221 -0.539073 0.944307 0.729781
3.99 0.00494824 -0.531739 0.954804 0.728667
4 0.0145442 -0.524416 0.965452 0.72744
4.01 0.0242471 -0.517105 0.976251 0.726106
4.02 0.0340586 -0.509807 0.987202 0.72467
4.03 0.0439802 -0.502524 0.998306 0.723138
4.04 0.0540133 -0.495257 1.00956 0.721513
4.05 0.0641596 -0.488005 1.02097 0.719801
4.06 0.0744205 -0.480771 1.03253 0.718008
4.07 0.0847975 -0.473555 1.04424 0.716137
4.08 0.0952923 -0.466358 1.0561 0.714194
4.09 0.105906 -0.45918 1.0681 0.712183
4.1 0.116641 -0.452022 1.08026 0.710109
4.11 0.127498 -0.444886 1.09256 0.707976
4.12 0.138478 -0.437771 1.105 0.705788
4.13 0.149583 -0.430677 1.11758 0.70355
4.14 0.160815 -0.423606 1.13031 0.701265
4.15 0.172175 -0.416559 1.14316 0.698939
4.16 0.183664 -0.409534 1.15615 0.696573
4.17 0.195284 -0.402533 1.16927 0.694174
4.18 0.207035 -0.395557 1.18251 0.691743
4.19 0.218919 -0.388605 1.19587 0.689286
4.2 0.230938 -0.381677 1.20934 0.686804
4.21 0.243092 -0.374775 1.22293 0.684303
4.22 0.255383 -0.367897 1.23661 0.681784
4.23 0.267811 -0.361045 1.25039 0.679252
4.24 0.280378 -0.354219 1.26426 0.676709
4.25 0.293084 -0.347418 1.27821 0.674158
4.26 0.30593 -0.340642 1.29223 0.671603
4.27 0.318917 -0.333893 1.30632 0.669046
4.28 0.332046 -0.327169 1.32046 0.666491
4.29 0.345317 -0.32047 1.33464 0.663938
4.3 0.35873 -0.313798 1.34885 0.661393
4.31 0.372286 -0.307151 1.36308 0.658856
4.32 0.385985 -0.300529 1.37732 0.65633
4.33 0.399828 -0.293933 1.39155 0.653818
4.34 0.413813 -0.287362 1.40576 0.651322
4.35 0.427941 -0.280816 1.41993 0.648844
4.36 0.442212 -0.274295 1.43405 0.646386
4.37 0.456624 -0.267799 1.4481 0.643951
4.38 0.471178 -0.261327 1.46206 0.641539
4.39 0.485872 -0.254879 1.47591 0.639154
4.4 0.500705 -0.248456 1.48963 0.636797
4.41 0.515676 -0.242056 1.5032 0.634469
4.42 0.530783 -0.235679 1.51659 0.632172
4.43 0.546025 -0.229326 1.52979 0.629909
4.44 0.5614 -0.222995 1.54277 0.62768
4.45 0.576905 -0.216687 1.5555 0.625487
4.46 0.592538 -0.2104 1.56795 0.623332
4.47 0.608296 -0.204136 1.58009 0.621215
4.48 0.624176 -0.197893 1.5919 0.619139
4.49 0.640175 -0.19167 1.60335 0.617103
4.5 0.656289 -0.185468 1.6144 0.615111
4.51 0.672514 -0.179286 1.62501 0.613162
4.52 0.688846 -0.173124 1.63516 0.611258
4.53 0.705279 -0.16698 1.6448 0.6094
4.54 0.72181 -0.160856 1.65391 0.607589
4.55 0.738432 -0.15475 1.66243 0.605825
4.56 0.75514 -0.148661 1.67034 0.60411
4.57 0.771927 -0.142589 1.67758 0.602445
4.58 0.788787 -0.136535 1.68412 0.60083
4.59 0.805712 -0.130496 1.68992 0.599266
4.6 0.822696 -0.124474 1.69492 0.597754
4.61 0.839731 -0.118466 1.6991 0.596295
4.62 0.856807 -0.112473 1.70239 0.594889
4.63 0.873916 -0.106495 1.70475 0.593536
